"Time (s)"	"Linear Acceleration x (m/s^2)"	"Linear Acceleration y (m/s^2)"	"Linear Acceleration z (m/s^2)"	"Absolute acceleration (m/s^2)"
2.269948700E-2	3.168015957E0	-6.462129951E-1	3.733539879E-1	3.254736478E0
2.754525600E-2	2.370069981E0	-5.026689768E-1	2.528899908E-2	2.422921242E0
3.239079700E-2	1.797984958E0	-3.331789970E-1	-3.037349880E-1	1.853648590E0
3.723631700E-2	1.433344960E0	-3.049150109E-1	-5.241720080E-1	1.556344188E0
4.208193100E-2	1.183642983E0	-2.083050013E-1	-6.230739951E-1	1.353744026E0
4.692747100E-2	9.667069912E-1	-1.468490064E-1	-6.162580252E-1	1.155794528E0
5.177301700E-2	7.755370140E-1	-1.164579988E-1	-4.953050017E-1	9.275490124E-1
5.661878400E-2	6.277719736E-1	-8.678100258E-2	-3.982219994E-1	7.484713449E-1
6.146432400E-2	5.017700195E-1	-5.984799936E-2	-3.174929917E-1	5.967886856E-1
6.630987000E-2	3.994370103E-1	-4.213200137E-2	-2.477370054E-1	4.719095830E-1
7.115548300E-2	3.213370144E-1	-3.064100072E-2	-1.879100055E-1	3.735057134E-1
7.600102400E-2	2.616029978E-1	-2.304499969E-2	-1.362819970E-1	2.958715653E-1
8.084679300E-2	2.145819962E-1	-1.664800011E-2	-9.025400132E-2	2.333846048E-1
8.569233300E-2	1.763900071E-1	-1.108399965E-2	-4.902699962E-2	1.834119308E-1
9.053787200E-2	1.441760063E-1	-7.207000162E-3	-1.323600020E-2	1.449615582E-1
9.538339900E-2	1.210879982E-1	-5.191000178E-3	1.858899929E-2	1.226164780E-1
1.002290130E-1	1.043400019E-1	-4.089000169E-3	4.756100103E-2	1.147414692E-1
1.050745530E-1	9.349600226E-2	-7.803999819E-3	7.495299727E-2	1.200847894E-1
1.099203220E-1	8.929000050E-2	-2.603599988E-2	1.015909985E-1	1.377363730E-1
1.147658630E-1	7.156000286E-2	-1.840200089E-2	1.128769964E-1	1.349099105E-1
1.196114010E-1	5.635400116E-2	-9.103000164E-3	1.239489987E-1	1.364624210E-1
1.244569290E-1	4.495500028E-2	-2.302000066E-3	1.393830031E-1	1.464714061E-1
1.293025420E-1	3.564500064E-2	9.999999747E-6	1.561989933E-1	1.602145177E-1
1.341483110E-1	2.659999952E-2	1.858999953E-3	1.696520001E-1	1.717347285E-1
1.389938510E-1	1.687500067E-2	4.168000072E-3	1.795209944E-1	1.803605426E-1
1.438393890E-1	8.965999819E-3	6.910999771E-3	1.858199984E-1	1.861645049E-1
1.486849280E-1	3.980999812E-3	8.592999540E-3	1.924560070E-1	1.926888752E-1
1.535305500E-1	3.750000033E-4	9.108999744E-3	1.998720020E-1	2.000798133E-1
1.583760910E-1	-1.934000058E-3	7.861999795E-3	2.093800008E-1	2.095364793E-1
1.632218580E-1	-3.973000217E-3	5.460000131E-3	2.190919966E-1	2.191960294E-1
1.680674120E-1	-8.797000162E-3	2.515000058E-3	2.289070040E-1	2.290897835E-1
1.729129510E-1	-1.584799960E-2	-1.434999984E-3	2.375240028E-1	2.380564433E-1
1.777585640E-1	-2.730000019E-2	-6.064000074E-3	2.467789948E-1	2.483584796E-1
1.826040990E-1	-4.316499829E-2	-1.187399961E-2	2.580150068E-1	2.618701065E-1
1.874496370E-1	-6.090100110E-2	-1.722499914E-2	2.647050023E-1	2.721660721E-1
1.922954050E-1	-8.096399903E-2	-2.322899923E-2	2.749089897E-1	2.875234045E-1
1.971409500E-1	-1.049949974E-1	-2.969199978E-2	2.863920033E-1	3.064733983E-1
2.019864880E-1	-1.336690038E-1	-4.112099856E-2	2.963449955E-1	3.276868863E-1
2.068321020E-1	-1.516920030E-1	-5.403000116E-2	3.014979959E-1	3.418051291E-1
2.116776420E-1	-1.661110073E-1	-5.995199829E-2	3.024930060E-1	3.502700780E-1
2.165234100E-1	-1.850520074E-1	-6.175300106E-2	3.001590073E-1	3.579847878E-1
2.213689500E-1	-2.074200064E-1	-6.025600061E-2	2.959290147E-1	3.663711593E-1
2.262145030E-1	-2.261449993E-1	-5.618499964E-2	2.897369862E-1	3.718142494E-1
2.310600410E-1	-2.347390056E-1	-5.388699844E-2	2.784619927E-1	3.681674765E-1
2.359056540E-1	-2.365709990E-1	-5.249499902E-2	2.649730146E-1	3.590713870E-1
2.407511950E-1	-2.411009967E-1	-5.112599954E-2	2.481160015E-1	3.497214730E-1
2.455969620E-1	-2.476619929E-1	-5.015899986E-2	2.284370065E-1	3.406403586E-1
2.504425030E-1	-2.572520077E-1	-4.580900073E-2	2.056709975E-1	3.325321326E-1
2.552880220E-1	-2.712459862E-1	-2.764499933E-2	1.806260049E-1	3.270541006E-1
2.601335610E-1	-2.707560062E-1	-3.584299982E-2	1.670390069E-1	3.201492861E-1
2.649791740E-1	-2.718969882E-1	-4.514700174E-2	1.500400007E-1	3.138124053E-1
2.698247230E-1	-2.765130103E-1	-5.073900148E-2	1.274379939E-1	3.086654069E-1
2.746704910E-1	-2.809079885E-1	-5.125400051E-2	1.018230021E-1	3.031570457E-1
2.795160310E-1	-2.830190063E-1	-5.096200109E-2	7.769100368E-2	2.978804718E-1
2.843615600E-1	-2.802389860E-1	-5.117699876E-2	5.538500100E-2	2.902076374E-1
2.892071730E-1	-2.742469907E-1	-5.071099848E-2	3.543300182E-2	2.811378930E-1
2.940527130E-1	-2.679220140E-1	-4.899600148E-2	1.512899995E-2	2.727850809E-1
2.988982560E-1	-2.612020075E-1	-4.558100179E-2	-3.984999843E-3	2.651791785E-1
3.037440230E-1	-2.542929947E-1	-3.972100094E-2	-2.234300040E-2	2.583445272E-1
3.085895640E-1	-2.470420003E-1	-3.273399919E-2	-3.798599914E-2	2.520797508E-1
3.134351770E-1	-2.367720008E-1	-2.529400028E-2	-5.145899951E-2	2.436160821E-1
3.182807180E-1	-2.256830037E-1	-1.761700027E-2	-6.146999821E-2	2.345671280E-1
3.231262560E-1	-2.116400003E-1	-1.064500026E-2	-7.037399709E-2	2.232874946E-1
3.279720280E-1	-1.961279958E-1	-3.855000017E-3	-7.883699983E-2	2.114150523E-1
3.328175690E-1	-1.812279969E-1	1.894999994E-3	-8.541599661E-2	2.003573567E-1
3.376631070E-1	-1.654780060E-1	7.007000037E-3	-8.927399665E-2	1.881539662E-1
3.425087210E-1	-1.488550007E-1	1.109599974E-2	-9.255299717E-2	1.756331112E-1
3.473542610E-1	-1.323640049E-1	1.526100002E-2	-9.626100212E-2	1.643755104E-1
3.522000280E-1	-1.164899990E-1	1.936000027E-2	-9.967400134E-2	1.545303725E-1
3.570455740E-1	-1.017469987E-1	2.206500061E-2	-1.049590036E-1	1.478367628E-1
3.618911120E-1	-8.612199873E-2	2.473899908E-2	-1.102719977E-1	1.420877554E-1
3.667366510E-1	-6.857900321E-2	2.585599944E-2	-1.155439988E-1	1.368284621E-1
3.715822540E-1	-5.301100016E-2	2.419699915E-2	-1.202730015E-1	1.336460093E-1
3.764277950E-1	-4.483500123E-2	2.370000072E-2	-1.198429987E-1	1.301315169E-1
3.812735620E-1	-3.925200179E-2	2.598199993E-2	-1.178369969E-1	1.268910628E-1
3.861190930E-1	-3.114599921E-2	2.966099977E-2	-1.145099998E-1	1.223208413E-1
3.909646320E-1	-1.987300068E-2	3.356099874E-2	-1.089100018E-1	1.156834702E-1
3.958101700E-1	-6.320999935E-3	3.731999919E-2	-1.005360037E-1	1.074254412E-1
4.006557790E-1	8.477999829E-3	4.070900008E-2	-9.070900083E-2	9.978588076E-2
4.055013190E-1	2.414900064E-2	4.310299829E-2	-7.869599760E-2	9.291987264E-2
4.103470860E-1	4.096300155E-2	4.405900091E-2	-6.889499724E-2	9.146411155E-2
4.151926410E-1	6.999400258E-2	4.463199899E-2	-9.067899734E-2	1.229384248E-1
4.200381790E-1	9.845399857E-2	4.292099923E-2	-1.349219978E-1	1.724510003E-1
4.248837930E-1	9.581000358E-2	3.242199868E-2	-1.226859987E-1	1.590050221E-1
4.297293230E-1	8.111699671E-2	2.133999951E-2	-8.148500323E-2	1.169408760E-1
4.345748620E-1	7.261899859E-2	1.592300087E-2	-5.580199882E-2	9.295657043E-2
4.394206290E-1	6.524600089E-2	1.350400038E-2	-4.495999962E-2	8.037910315E-2
4.442661840E-1	5.270799994E-2	7.482999936E-3	-3.673499823E-2	6.468066667E-2
4.491117230E-1	3.559000045E-2	-5.632999819E-3	-2.517399937E-2	4.395576257E-2
4.539573360E-1	1.672399975E-2	-2.161700092E-2	-1.407300029E-2	3.074144163E-2
4.588028820E-1	-3.348000115E-3	-3.740499914E-2	-3.787999973E-3	3.774509252E-2
4.636484200E-1	-1.998100057E-2	-4.875899851E-2	7.056999952E-3	5.316466466E-2
4.684941870E-1	-3.015900031E-2	-5.254299939E-2	1.713800058E-2	6.296064761E-2
4.733397280E-1	-3.172500059E-2	-5.058899894E-2	2.456399985E-2	6.456866550E-2
4.781852660E-1	-2.665700018E-2	-4.366299883E-2	3.063300066E-2	5.962745890E-2
4.830308800E-1	-1.845199987E-2	-3.588899970E-2	3.682899848E-2	5.463397961E-2
4.878764240E-1	-7.675000001E-3	-2.756199986E-2	4.497800022E-2	5.330656587E-2
4.927219630E-1	8.225000463E-3	-1.789899915E-2	4.996500164E-2	5.370778521E-2
4.975677300E-1	2.573399991E-2	-7.615999784E-3	5.267800018E-2	5.912033413E-2
5.024132800E-1	4.344499856E-2	3.037000075E-3	5.280499905E-2	6.844749224E-2
5.072588190E-1	6.431700289E-2	1.270900015E-2	4.607500136E-2	8.013177457E-2
5.121044320E-1	8.835799992E-2	2.095600031E-2	3.424200043E-2	9.705052649E-2
5.169502020E-1	1.171670035E-1	3.579200059E-2	1.545399986E-2	1.234827928E-1
5.217955110E-1	1.359370053E-1	8.833099902E-2	4.607399926E-2	1.685350059E-1
5.266412780E-1	1.461640000E-1	1.136979982E-1	1.306509972E-1	2.266292849E-1
5.314868240E-1	1.653279960E-1	9.664099663E-2	1.731570065E-1	2.581785766E-1
5.363324370E-1	1.532679945E-1	5.432699993E-2	1.897320002E-1	2.498814378E-1
5.411779780E-1	1.248489991E-1	4.195999820E-3	1.862629950E-1	2.242739002E-1
5.460237450E-1	9.419699758E-2	-4.529400170E-2	1.612060070E-1	1.921249532E-1
5.508692860E-1	6.654600054E-2	-8.578199893E-2	1.339440048E-1	1.724178585E-1
5.557148240E-1	4.289399832E-2	-1.128069982E-1	1.166049987E-1	1.678154929E-1
5.605604510E-1	1.049999986E-2	-1.268309951E-1	1.358699948E-1	1.861639245E-1
5.654059920E-1	-2.090499923E-2	-1.262370050E-1	1.793749928E-1	2.203365346E-1
5.702515300E-1	-1.908699982E-2	-1.085229963E-1	1.646340042E-1	1.981058042E-1
5.750973030E-1	-3.073999891E-3	-8.522299677E-2	1.161279976E-1	1.440767868E-1
5.799428430E-1	4.755000118E-3	-6.811399758E-2	8.185700327E-2	1.065959459E-1
5.847883820E-1	7.315000053E-3	-5.679000169E-2	6.682600081E-2	8.800186306E-2
5.896339900E-1	8.789000101E-3	-4.638899863E-2	6.252700090E-2	7.835056834E-2
5.944795300E-1	6.072999910E-3	-3.334499896E-2	6.266400218E-2	7.124287650E-2
5.993250690E-1	-3.185000038E-3	-2.054600045E-2	6.845500320E-2	7.154278317E-2
6.041708600E-1	-1.608400047E-2	-1.094599999E-2	7.660000026E-2	7.903208226E-2
6.090164010E-1	-3.285099939E-2	-8.182000369E-3	8.560600132E-2	9.205716024E-2
6.138619390E-1	-5.367200077E-2	-1.260999963E-2	1.009190008E-1	1.149971325E-1
6.187075660E-1	-7.345599681E-2	-1.775000058E-2	1.250450015E-1	1.461064625E-1
6.235531070E-1	-8.551699668E-2	-1.988299936E-2	1.605010033E-1	1.829455177E-1
6.283986450E-1	-8.629100025E-2	-1.737399958E-2	1.968449950E-1	2.156291832E-1
6.332444180E-1	-7.694999874E-2	-1.307000034E-2	2.224729955E-1	2.357675994E-1
6.380899580E-1	-6.800799817E-2	-1.434999984E-2	2.354409993E-1	2.454862001E-1
6.429354970E-1	-5.842899904E-2	-2.112199925E-2	2.412180007E-1	2.490907678E-1
6.477811010E-1	-4.674300179E-2	-3.113500029E-2	2.513320148E-1	2.575307324E-1
6.526268700E-1	-3.822400048E-2	-4.310499877E-2	2.644659877E-1	2.706683834E-1
6.574724110E-1	-4.411499947E-2	-5.989500135E-2	2.545419931E-1	2.651889339E-1
6.623179390E-1	-6.204399839E-2	-8.539400250E-2	2.322369963E-1	2.550992275E-1
6.671634780E-1	-7.977099717E-2	-1.485079974E-1	1.542489976E-1	2.284968064E-1
6.720090910E-1	-9.299500287E-2	-1.848250031E-1	3.471399844E-2	2.097937416E-1
6.768546180E-1	-1.152580008E-1	-1.765269935E-1	-2.343400009E-2	2.121210469E-1
6.817001560E-1	-1.064449996E-1	-1.389230043E-1	-3.892200068E-2	1.792904381E-1
6.865459230E-1	-8.177199960E-2	-8.898399770E-2	-2.494500019E-2	1.233979935E-1
6.913914490E-1	-5.603199825E-2	-3.760299832E-2	1.100999955E-2	6.837243889E-2
6.962370620E-1	-3.537600115E-2	6.564999931E-3	4.552000016E-2	5.802267743E-2
7.010826030E-1	-2.166000009E-2	3.704800084E-2	6.795600057E-2	8.037243298E-2
7.059281460E-1	-1.451900043E-2	5.211300030E-2	7.792399824E-2	9.486156058E-2
7.107736850E-1	-1.448800042E-2	5.279999971E-2	7.785499841E-2	9.517952985E-2
7.156194520E-1	-2.001800016E-2	4.370899871E-2	7.256399840E-2	8.704441833E-2
7.204649970E-1	-3.242300078E-2	2.966699935E-2	6.813900173E-2	8.108209042E-2
7.253105360E-1	-4.732799903E-2	1.524200011E-2	6.440699846E-2	8.136657489E-2
7.301561490E-1	-5.963400006E-2	4.660000093E-3	5.695300177E-2	8.259282036E-2
7.350019220E-1	-6.494600326E-2	-4.849999968E-4	4.173000157E-2	7.719852068E-2
7.398472320E-1	-5.923499912E-2	-1.217999961E-3	1.895499974E-2	6.220579282E-2
7.446929990E-1	-4.425999895E-2	1.705999952E-3	-8.139000274E-3	4.503444535E-2
7.495385560E-1	-2.366000041E-2	7.876999676E-3	-3.734799847E-2	4.490785826E-2
7.543840940E-1	-1.815999974E-3	1.658100076E-2	-6.793399900E-2	6.995180957E-2
7.592297080E-1	1.814699918E-2	2.507600002E-2	-1.037639976E-1	1.082824388E-1
7.640754820E-1	3.086300008E-2	2.906399965E-2	-1.459659934E-1	1.519977371E-1
7.689207920E-1	3.222399950E-2	2.510300092E-2	-1.966450065E-1	2.008427380E-1
7.737665590E-1	2.137300000E-2	1.561299991E-2	-2.462549955E-1	2.476733609E-1
7.786120940E-1	-1.927000005E-3	2.593999961E-3	-2.840929925E-1	2.841113700E-1
7.834577080E-1	-2.848500013E-2	-7.054000162E-3	-3.030610085E-1	3.044784541E-1
7.883032480E-1	-5.681899935E-2	-1.183700003E-2	-3.091059923E-1	3.145075957E-1
7.931490290E-1	-8.772200346E-2	-1.489599980E-2	-3.147079945E-1	3.270445879E-1
7.979945700E-1	-1.172330007E-1	-1.479099970E-2	-3.149760067E-1	3.364108128E-1
8.028401080E-1	-1.347769946E-1	-7.362999953E-3	-2.869040072E-1	3.170693321E-1
8.076857030E-1	-1.438309997E-1	3.367000027E-3	-2.400580049E-1	2.798687887E-1
8.125312430E-1	-1.420720071E-1	1.482400019E-2	-1.878969967E-1	2.360285736E-1
8.173767820E-1	-1.370899975E-1	2.648000047E-2	-1.465499997E-1	2.024148222E-1
8.222225580E-1	-1.343169957E-1	3.548699990E-2	-1.226669997E-1	1.853309886E-1
8.270680980E-1	-1.348440051E-1	4.077599943E-2	-1.158830002E-1	1.824128767E-1
8.319136370E-1	-1.369899958E-1	4.130399972E-2	-1.202249974E-1	1.868858725E-1
8.367592410E-1	-1.381949931E-1	3.929999843E-2	-1.273380071E-1	1.919825879E-1
8.416047820E-1	-1.353289932E-1	3.603700176E-2	-1.324529946E-1	1.927599483E-1
8.464503200E-1	-1.296519935E-1	3.297999874E-2	-1.318210065E-1	1.878139971E-1
8.512960630E-1	-1.193640009E-1	3.142800182E-2	-1.248660013E-1	1.755762008E-1
8.561416040E-1	-1.032169983E-1	3.127099946E-2	-1.099810004E-1	1.540371533E-1
8.609871420E-1	-8.531899750E-2	3.197599947E-2	-8.753799647E-2	1.263514808E-1
8.658327410E-1	-6.748899817E-2	3.241299838E-2	-6.083599851E-2	9.646961207E-2
8.706782810E-1	-5.054299906E-2	3.257000074E-2	-3.328200057E-2	6.872475001E-2
8.755240490E-1	-3.615700081E-2	3.154699877E-2	-7.215000223E-3	4.852420084E-2
8.803695990E-1	-2.439199947E-2	2.900500037E-2	1.714799926E-2	4.159703791E-2
8.852151370E-1	-1.702300087E-2	2.620499954E-2	3.849099949E-2	4.957864057E-2
8.900606760E-1	-1.176699996E-2	2.211200073E-2	5.594899878E-2	6.130002715E-2
8.949063030E-1	-8.136999793E-3	1.717899926E-2	7.240399718E-2	7.485764884E-2
8.997518440E-1	-5.295999814E-3	1.316899993E-2	8.665499836E-2	8.780978826E-2
9.045976110E-1	-1.235999982E-3	1.078999974E-2	9.863100201E-2	9.922714522E-2
9.094431670E-1	3.990000114E-3	9.078999981E-3	1.088489965E-1	1.092998279E-1
9.142887050E-1	9.321999736E-3	8.987000212E-3	1.170869991E-1	1.178008116E-1
9.191342430E-1	1.224599965E-2	8.275000378E-3	1.220820025E-1	1.229733933E-1
9.239798710E-1	1.579800062E-2	8.790000342E-3	1.240350008E-1	1.253456116E-1
9.288254110E-1	1.876799949E-2	9.905000217E-3	1.232350022E-1	1.250488408E-1
9.336711790E-1	2.133500017E-2	1.066999976E-2	1.187629998E-1	1.211349712E-1
9.385167190E-1	2.434699982E-2	1.262100041E-2	1.120579988E-1	1.153649043E-1
9.433622580E-1	2.535099909E-2	1.399100013E-2	1.026069969E-1	1.066143379E-1
9.482078710E-1	2.443099953E-2	1.329999976E-2	9.217300266E-2	9.627889775E-2
9.530534160E-1	2.133199945E-2	1.159800030E-2	8.063399792E-2	8.421050666E-2
9.578989550E-1	1.566099934E-2	8.958999999E-3	6.763599813E-2	7.000113445E-2
9.627447120E-1	9.208999574E-3	5.251999944E-3	5.295899883E-2	5.400967259E-2
9.675902530E-1	3.089000005E-3	1.967000077E-3	3.745099902E-2	3.762962049E-2
9.724357910E-1	-1.294999965E-3	-3.399999987E-4	2.146999910E-2	2.151170580E-2
9.772813740E-1	-3.269999987E-3	-1.868000021E-3	6.513000000E-3	7.523396374E-3
9.821271440E-1	-3.957000095E-3	-2.516000066E-3	-5.898999982E-3	7.535668973E-3
9.869724530E-1	-5.656000227E-3	-2.841999987E-3	-1.569999941E-2	1.692800295E-2
9.918182210E-1	-6.694999989E-3	-2.274000086E-3	-2.437300049E-2	2.537788908E-2
9.966637610E-1	-8.484999649E-3	-2.010999946E-3	-3.201099858E-2	3.317745273E-2
1.001509300E0	-1.049099956E-2	-1.225000015E-3	-3.812199831E-2	3.955816543E-2
1.006354908E0	-1.228700019E-2	7.420000038E-4	-4.230999947E-2	4.406423712E-2
1.011200677E0	-1.174500026E-2	3.849999979E-3	-4.470200092E-2	4.637926710E-2
1.016045987E0	-1.067299955E-2	7.166000083E-3	-4.623199999E-2	4.798606360E-2
1.020891735E0	-8.218999952E-3	9.627000429E-3	-4.745600000E-2	4.911520165E-2
1.025737276E0	-5.107000005E-3	1.236199960E-2	-4.881900176E-2	5.061813328E-2
1.030582814E0	-4.459999909E-4	1.359300036E-2	-5.029200017E-2	5.209850148E-2
1.035428428E0	6.219000090E-3	1.534300018E-2	-5.096099898E-2	5.358271208E-2
1.040274197E0	1.525400020E-2	1.789299957E-2	-5.187800154E-2	5.695762460E-2
1.045119737E0	2.842099965E-2	2.069899999E-2	-5.254700035E-2	6.322490860E-2
1.049965266E0	4.444500059E-2	2.377399988E-2	-5.270000175E-2	7.292359928E-2
1.054810804E0	6.186100096E-2	2.668000013E-2	-5.243900046E-2	8.537244646E-2
1.059656418E0	7.917799801E-2	2.913399972E-2	-5.306100100E-2	9.966651963E-2
1.064501954E0	9.590400010E-2	3.135199845E-2	-5.336600170E-2	1.141422585E-1
1.069347493E0	1.113929972E-1	3.389199823E-2	-5.367600173E-2	1.282114680E-1
1.074193260E0	1.233360022E-1	3.496700153E-2	-5.366700143E-2	1.389770042E-1
1.079038819E0	1.338489950E-1	3.595399857E-2	-5.251000077E-2	1.482077719E-1
1.083884358E0	1.428979933E-1	3.629700094E-2	-5.190499872E-2	1.563055906E-1
1.088729971E0	1.512860060E-1	3.631599993E-2	-5.078199878E-2	1.636615986E-1
1.093575517E0	1.587630063E-1	3.690600023E-2	-4.879799858E-2	1.701440263E-1
1.098421055E0	1.638499945E-1	3.693100065E-2	-4.599799961E-2	1.741451564E-1
1.103266826E0	1.672810018E-1	3.675900027E-2	-4.216099903E-2	1.763851113E-1
1.108112367E0	1.694519967E-1	3.649400175E-2	-3.724100068E-2	1.772926492E-1
1.112957905E0	1.697839946E-1	3.545200080E-2	-3.030299954E-2	1.760730557E-1
1.117803529E0	1.682620049E-1	3.289499879E-2	-2.181600034E-2	1.728297460E-1
1.122649298E0	1.641709954E-1	3.059300035E-2	-1.228199992E-2	1.674481857E-1
1.127494608E0	1.582159996E-1	2.881599963E-2	-2.547000069E-3	1.608388994E-1
1.132340375E0	1.523669958E-1	2.752299979E-2	6.262000185E-3	1.549594449E-1
1.137185915E0	1.458369941E-1	2.604000084E-2	1.452300046E-2	1.488537135E-1
1.142031524E0	1.409309953E-1	2.530100010E-2	2.221699990E-2	1.448974849E-1
1.146877064E0	1.368149966E-1	2.368799970E-2	2.862700075E-2	1.417708355E-1
1.151722603E0	1.340339929E-1	2.080200054E-2	3.305400163E-2	1.396080281E-1
1.156568370E0	1.298930049E-1	1.734399982E-2	3.557299823E-2	1.357882368E-1
1.161413910E0	1.268350035E-1	1.393899973E-2	3.720600158E-2	1.329123786E-1
1.166259449E0	1.237509996E-1	1.089600008E-2	3.914999962E-2	1.302526590E-1
1.171105052E0	1.205810010E-1	8.268999867E-3	3.993900120E-2	1.272920971E-1
1.175950593E0	1.160660014E-1	5.977000110E-3	4.044299945E-2	1.230555866E-1
1.180796360E0	1.091340035E-1	3.503999906E-3	3.976099938E-2	1.162043279E-1
1.185641886E0	1.004600003E-1	8.880000096E-4	3.787500039E-2	1.073662697E-1
1.190487425E0	8.911500126E-2	-2.353999997E-3	3.528000042E-2	9.587337063E-2
1.195333038E0	7.461199909E-2	-6.608000025E-3	3.288500011E-2	8.180488558E-2
1.200178609E0	5.847600102E-2	-1.026600040E-2	2.898900025E-2	6.606962687E-2
1.205024147E0	4.231199995E-2	-1.338400040E-2	2.561799996E-2	5.124176742E-2
1.209869686E0	2.765600011E-2	-1.517700031E-2	2.126000077E-2	3.804186264E-2
1.214715453E0	1.388799958E-2	-1.673799939E-2	1.796600036E-2	2.821018123E-2
1.219560993E0	4.023999907E-3	-1.671100035E-2	1.558499970E-2	2.320220514E-2
1.224406532E0	-5.400000140E-3	-1.611400023E-2	1.221300010E-2	2.092793292E-2
1.229252154E0	-1.421600021E-2	-1.569999941E-2	9.898000397E-3	2.337851696E-2
1.234097695E0	-2.203500085E-2	-1.581599936E-2	8.812000044E-3	2.851908909E-2
1.238943233E0	-2.854599990E-2	-1.520700008E-2	7.304999977E-3	3.315855827E-2
1.243789010E0	-3.362699971E-2	-1.465499960E-2	4.503000062E-3	3.695701736E-2
1.248634551E0	-3.673399985E-2	-1.351200044E-2	5.380000221E-4	3.914396946E-2
1.253480089E0	-3.890100121E-2	-1.298000012E-2	-3.272000002E-3	4.113969230E-2
1.258325727E0	-3.973999992E-2	-1.178800035E-2	-7.660999894E-3	4.215347513E-2
1.263171267E0	-3.875099868E-2	-1.064400002E-2	-1.302400045E-2	4.224404363E-2
1.268016806E0	-3.566199914E-2	-8.770000190E-3	-1.846400090E-2	4.110487094E-2
1.272862573E0	-3.146599978E-2	-7.271999959E-3	-2.409199998E-2	4.029163174E-2
1.277708114E0	-2.696100064E-2	-5.944999866E-3	-2.980799973E-2	4.062948962E-2
